time,x,y,z,vx,vy,vz,phi,theta,psi,p,q,r
0.01,0.0,0.0,0.0,0.0,0.0,0.0,0.0,0.0,0.0,0.0,0.0,0.0
0.02,2.400275040311401e-09,1.5725830486410123e-09,2.673966344271719e-05,9.59537149865427e-07,6.286578958548624e-07,0.0053479215375018185,-1.8245229087059353e-05,2.7848175017361096e-05,-2.539475612892877e-10,-0.003647602478074547,0.005567431998706231,0.0
0.03,9.537904003166667e-08,5.7442908033111925e-08,0.00014788129919746437,3.0158291674572426e-05,1.7741396644749484e-05,0.018880371330252783,-0.00040550214317295404,0.0007017344746762226,-3.0519545034083586e-07,-0.07377599629388709,0.1291609380387505,-3.233395864956878e-05
0.04,1.3455183649347074e-06,7.83824300031515e-07,0.0004396790287867291,0.0003007594387686861,0.00017461372265064224,0.03947883423788568,-0.0027880315198542003,0.004795109813862127,-2.0131184900932904e-05,-0.40258447595131175,0.6893000484381722,-0.002627178941573943
0.05,9.296407552582145e-06,5.4946004935355254e-06,0.0009665079822174988,0.001538446992706191,0.0009300116269451414,0.06588312202578556,-0.010629536638619989,0.016805807314347557,-0.00024245479400019596,-1.1648216144468106,1.7127451581366362,-0.025903956360605697
0.060000000000000005,3.982647795580263e-05,2.4730325684070833e-05,0.0017823635756396487,0.005051329332776809,0.0032771741927688034,0.09726753409171623,-0.02736844573471641,0.039219446790446255,-0.0012255412048337538,-2.176464117638762,2.7728703269600654,-0.08626213734249981
0.07,0.0001233099198333341,8.117102945718058e-05,0.002933600482896286,0.012365419099583583,0.008599616734288364,0.13291590966382413,-0.05398303342374369,0.07143989162564862,-0.003746070869264104,-3.117002569770603,3.686779055146732,-0.15565681181072136
0.08,0.0003052443868301007,0.000211817875458561,0.0044595296910833904,0.024956324726566705,0.018328534848487312,0.17212628264203272,-0.08944850738855292,0.11201234686382375,-0.008397692275839655,-3.8891514160717335,4.473693855698242,-0.1876690280681189
0.09,0.0006454348299446893,0.0004674047823216694,0.006392595192633194,0.044207547255100454,0.033762438864498076,0.21422362420506472,-0.13228686367117176,0.15960395336347852,-0.015427272729267305,-4.48695046439566,5.140121839096311,-0.14394187359886645
0.09999999999999999,0.0012171134297149964,0.0009108394962746111,0.008758689287216705,0.07141277704472168,0.05603183870529804,0.2585753713469794,-0.18092650797526869,0.21278807644257747,-0.024688281931394464,-4.898154073164339,5.64888373770034,0.005040747503562926
0.10999999999999999,0.002105896640627196,0.0016155164176865308,0.011577643104043592,0.10773848458506816,0.08609900481946978,0.3046134068674377,-0.23354642077603358,0.269761984106247,-0.03556560171002664,-5.107974223514497,5.9334130829215805,0.2722752611679755
0.11999999999999998,0.0034081061148667924,0.0026636474361806557,0.014863960709702577,0.15413943486603274,0.12476399860116297,0.35186197822993537,-0.2879944564893127,0.32826932503379125,-0.04695303795966733,-5.11457138968588,5.928668336871915,0.641395458305706
0.12999999999999998,0.005228050567616061,0.004144640845858766,0.018627811476784342,0.21124524241751336,0.17267013055052974,0.39995798409765915,-0.3418850615956581,0.3858268560729136,-0.05740636027799342,-4.937676205898494,5.617825087372124,1.0608360421572416
0.13999999999999999,0.007674133021613362,0.006153421334960623,0.02287617855940461,0.279238792848217,0.2302777806534606,0.4486611901109042,-0.3925734293610524,0.43974337559903953,-0.06550089104620055,-4.554471356683507,4.974505706159363,1.4249149737040843
0.15,0.010853523224411668,0.008787946660508673,0.027614095592282253,0.3577011603639718,0.2977303678289642,0.49785233773440335,-0.43743505205137173,0.4874043879476959,-0.07028934508586554,-3.9912502993425942,4.092033269450411,1.6325940150211111
0.16,0.014865724148933803,0.012145142611277951,0.032845596554066006,0.4455553187656192,0.37468198188554463,0.5474563219361045,-0.47462478373116,0.5270512095771531,-0.0716555497858746,-3.313474884319544,3.132780387494282,1.643376538538314
0.17,0.019796537961910648,0.016315488190466257,0.038573843076078286,0.5411830723631882,0.46019962138671655,0.5973522604042725,-0.5034492518982899,0.5581239873240176,-0.07022430073259797,-2.597803632907307,2.240117373509054,1.4914368628890746
0.18000000000000002,0.02571393791393056,0.021377379333037315,0.044800496219111065,0.6426684489017946,0.5528141691853645,0.6473265259806784,-0.5241930090927992,0.581069470101438,-0.06693732484257202,-1.90414418888199,1.4864119974475551,1.2457032822564993
0.19000000000000003,0.032666470472410294,0.027392660365610073,0.05152480359487536,0.748052351422836,0.6506992900583367,0.697079466427816,-0.5376977413195682,0.5968537115946981,-0.06266754600574671,-1.2703289890065848,0.877948796688672,0.9648058423873189
0.20000000000000004,0.04068378214304115,0.03440418135978733,0.05874285287074801,0.8555096943648172,0.7518942063976735,0.7462586117963161,-0.5449978042161917,0.6065752777485747,-0.058056635278518565,-0.7113516182717963,0.39767836721915695,0.6884612713794966
0.21000000000000005,0.04977851000527409,0.042435470096737246,0.0664472197287729,0.9634546525539387,0.8545022288372357,0.7945033023645032,-0.5471001071481542,0.6112877856786684,-0.05351444382601823,-0.22876072468138586,0.02131187492947373,0.43771463359963314
0.22000000000000006,0.059948894690611015,0.05149208324648149,0.07462703898480588,1.0705838664379972,0.9568289753847569,0.8414824613549212,-0.5448948177978851,0.6118981558378577,-0.04927355801972621,0.1825572377153924,-0.2774586921108078,0.21908714742539978
0.23000000000000007,0.0711815511942102,0.06156398788223488,0.08326837431600252,1.1758667935513258,1.057451566978214,0.8869137365436861,-0.5391418358385042,0.6091254747228746,-0.045449042919077434,0.5291447216559416,-0.5210266855977987,0.03169606698091926
0.24000000000000007,0.08345407162379254,0.07262843984976562,0.09235481473330044,1.2785227906772485,1.1552497577049998,0.930587329612082,-0.5304850457806088,0.6035120252239723,-0.04208577915082543,0.8184582755424996,-0.7268941350265161,-0.1283768900712244
0.25000000000000006,0.09673735419189239,0.08465299889109601,0.10186827681732084,1.377989195720847,1.2494024569935043,0.9723822707398929,-0.5194596868977102,0.5954474440891385,-0.03918984272598542,1.059353337901572,-0.9088419157292087,-0.2662154382150693
0.26000000000000006,0.11099757405702626,0.0975983602441765,0.11178990374766207,1.4738810966540576,1.3393549763398291,1.012268828198287,-0.5064972957922312,0.585192042874368,-0.03674830846490113,1.2608276498503557,-1.0777251472646756,-0.3869344313612139
0.2700000000000001,0.1261976080341654,0.11142065509064669,0.12210074151005222,1.5659219948554064,1.4247463918367904,1.0502607098796175,-0.49194070250827104,0.5729060050178293,-0.03474042324566522,1.4302292062792423,-1.2409275643024127,-0.49428022324726273
0.2800000000000001,0.1422976436330185,0.1260728898107384,0.1327816559329114,1.6538500771470366,1.5053107613716705,1.0863102297760479,-0.47607037223016996,0.5586943628625527,-0.033141021459161785,1.571836400013379,-1.4010007094307364,-0.5892218162750519
0.2900000000000001,0.15925534242508277,0.1415058537752964,0.14381280007817943,1.73742226146563,1.580869207253972,1.1203238273466405,-0.4591222856445743,0.542637965208088,-0.03192127004392038,1.6896154517282564,-1.5596752389091222,-0.6725182495604078
0.3000000000000001,0.17702609401113878,0.15766898659166353,0.15517328676103684,1.8164276266588752,1.6513292289776034,1.1521882648542758,-0.4412901584063425,0.5247955794172278,-0.0310511162538158,1.7877575781230748,-1.7188140933380984,-0.7452194582324082
0.3100000000000001,0.19556337490313944,0.17451120794922703,0.1668410891929801,1.8906947718976759,1.7166778550635433,1.1817901232711079,-0.4227246072712146,0.5051999828578156,-0.030501969340988887,1.8707409076141504,-1.8806262133315848,-0.8086554556431645
0.3200000000000001,0.2148191452366528,0.19198164880172652,0.17879309325189988,1.9600919569583546,1.776968802311843,1.2090265689436055,-0.403531672200559,0.4838531466607643,-0.03024913254672029,1.9433230905664551,-2.0477626361645043,-0.8643494095369375
0.3300000000000001,0.23474422389096353,0.2100302404297067,0.19100522824885185,2.0245225958445263,1.8323069360679654,1.2338102304035252,-0.38377072157325925,0.4607201204127385,-0.030274110239827526,2.010600614319428,-2.2235860003958328,-0.914032382871484
0.34000000000000014,0.25528860757506644,0.22860814851033237,0.2034526346537199,2.0839184720748296,1.8828328286317157,1.25607169769712,-0.3634512012656543,0.4357186979733183,-0.030567308197754522,2.078142945469247,-2.4127749742159423,-0.9598124185815806
0.35000000000000014,0.2764017162312562,0.2476680606052407,0.21610985811797864,2.13823164852983,1.9287088856566494,1.2757622867906613,-0.3425279663670332,0.4087012617948264,-0.03113177378683766,2.1521293231070695,-2.6222642309429167,-1.0044306709358286
0.36000000000000015,0.29803255087566927,0.26716434528081767,0.22895108054439003,2.1874249195792093,1.9701075592986566,1.2928586426476778,-0.32089580662513056,0.3794288911260868,-0.03198811686304507,2.239316210808199,-2.8619024298547147,-1.05122920545228
0.37000000000000016,0.32012974697097646,0.2870531035054732,0.24195040704108478,2.231460644394718,2.007201660389211,1.307369093815464,-0.2983856329685445,0.34755414284704855,-0.033178418636332314,2.3464526489334347,-3.142468347264926,-1.1027566454918285
0.38000000000000017,0.3426415190618116,0.30729213467534583,0.2550822200682711,2.2702915243396045,2.0401571547064816,1.3193401222028354,-0.2747684743307691,0.3126803544182925,-0.034759100635873806,2.4783877146787177,-3.463731291919154,-1.1551647249942583
0.3900000000000002,0.3655155764679144,0.3278408482396984,0.26832158901439124,2.3038682111643434,2.0691298373144367,1.3288599019501752,-0.24978145999167806,0.2746676332594023,-0.036754783626069217,2.6335710284157337,-3.78006674042298,-1.184662814905399
0.4000000000000002,0.3886993252520004,0.34866017097343477,0.2816446956358948,2.3321955480707324,2.094268328615686,1.336057624159072,-0.22320574878320798,0.23435132789652527,-0.039034384478036734,2.7962351389393687,-3.95507303757223,-1.133839801779239
0.4100000000000002,0.41214097439880965,0.3697125209341288,0.29502925252024825,2.3554542699594623,2.1157253254515096,1.341106682538173,-0.19504336201076322,0.19413915330868647,-0.04115271293198275,2.9279350169192315,-3.8247073788857455,-0.9423707816382274
0.4200000000000002,0.4357917714765943,0.3909619254694684,0.30845500443393653,2.3740596010790935,2.133676290569027,1.3442478491711731,-0.1657879183890591,0.15582079171387245,-0.04278928263738468,2.9817269025330413,-3.655226942622415,-0.7511606603460117
0.4300000000000002,0.4596072634776904,0.41237435469208344,0.32190443223658066,2.3884012423106866,2.1483433651210615,1.3457984673245493,-0.1365456590481369,0.11780213162642994,-0.044377537757560814,2.909958274821776,-3.814154795305483,-0.7038462538406414
0.4400000000000002,0.4835454689780481,0.43391835348055785,0.33536333972230115,2.39856887023765,2.160023375282016,1.3461040732493137,-0.10862796484672212,0.07750254834784903,-0.04645354597730214,2.713591556642601,-4.134751240173463,-0.6891159954515712
0.45000000000000023,0.507564126158103,0.45556572007140317,0.34882099491978225,2.404445534363644,2.169046874801768,1.3455077266168796,-0.08191169775015339,0.03418766057305874,-0.04898507171800166,2.6578585345637475,-4.440523652069067,-0.6365024014419169
0.46000000000000024,0.531619426831005,0.47729095948331735,0.36227010970621804,2.405858046162186,2.175601400655285,1.3443534850797927,-0.05486953493068304,-0.011585524841137534,-0.05173508289059461,2.7572789609538537,-4.6544353748247875,-0.5376741068057522
0.47000000000000025,0.5556658891885672,0.4990694496831143,0.3757053366479579,2.4026531162097036,2.179679509591296,1.3426837892208718,-0.02627260353373991,-0.058873995402413754,-0.05452642802463388,2.9433536311124704,-4.7718648651179745,-0.4044075221926742
0.48000000000000026,0.5796569334541698,0.5208758586280574,0.3891198074319568,2.3947661994576346,2.1811588339185337,1.3401522870271458,0.004434250575826897,-0.10686465144166821,-0.05727395365576664,3.153688658304054,-4.818514676454785,-0.24953426406261103
0.49000000000000027,0.603545792318751,0.5426834802341407,0.4025034333890834,2.3822214691346555,2.17989528323936,1.3364626403838042,0.03727033982846063,-0.1549499349533012,-0.059933377970017604,3.3454311207341982,-4.806057089745565,-0.07886746848857704
0.5000000000000002,0.6272862570214945,0.5644642019459537,0.4158435635677117,2.3651046571584127,2.1757564873113715,1.331400628069783,0.07191496036012537,-0.20262608735611473,-0.06244747019810213,3.495532139810101,-4.7404191985790085,0.10344476806272965
0.5100000000000002,0.6508331769795822,0.5861886935904956,0.4291258486809545,2.3435403067602323,2.1686333693143163,1.3248429629568244,0.10786089441911109,-0.2494409692046716,-0.0647262782786989,3.593051257236078,-4.622969794604049,0.29315241199306297
0.5200000000000002,0.6741427757072439,0.607826646739741,0.44233511190851416,2.3176786889023595,2.158439882413264,1.316749977520829,0.14450016009159983,-0.29489115989072623,-0.0666421639570704,3.6333265913085944,-4.439571534837476,0.4832170440883764
0.5300000000000002,0.6971729202806923,0.629346991827966,0.45545610693669036,2.287698701399189,2.1451097497697127,1.3071503352981968,0.1811694205042858,-0.3383790224198625,-0.06803811920766091,3.6149874040271137,-4.1843969294908545,0.6635936377409112
0.5400000000000003,0.7198834507520955,0.6507180938599244,0.4684741076989442,2.253815465554633,2.128595632681006,1.2961220439046115,0.2172071672926234,-0.3792703792916163,-0.06875270782029898,3.5434904311823883,-3.8573520442237923,0.8220687854354692
0.5500000000000003,0.7422365897582643,0.671907956572421,0.48137531816903895,2.216288885361032,2.108873289759362,1.2837754089483646,0.2519157020433941,-0.4169467822667127,-0.06864928765522382,3.4069783575373673,-3.4662570877127568,0.9464323045062787
0.5600000000000003,0.7641974290870793,0.6928845423322589,0.49414713141186406,2.175430290146992,2.0859600975879133,1.270239613339313,0.28455710959032576,-0.4508672280120207,-0.067642929277623,3.206254414118339,-3.026421834366715,1.02639799746503
0.5700000000000003,0.7857344572361651,0.7136162813374498,0.5067782634953161,2.131604298930333,2.0599324803353296,1.2556504263605397,0.3144664754926185,-0.4806187161473387,-0.06572298304510173,2.948029975133545,-2.5578276530402033,1.0559622033008613
0.5800000000000003,0.8068200679477501,0.7340727266344347,0.5192587788519436,2.085223621985316,2.030938033431947,1.2401406638989068,0.34112039297081337,-0.5059528376560782,-0.06295974206768026,2.6441590429049673,-2.0829984615480392,1.0352168697016422
0.5900000000000003,0.8274309759232372,0.7542252917230597,0.5315800323527361,2.036736340388904,1.9991999105597174,1.2238332440330717,0.36417976741104896,-0.5267962513541928,-0.059492426175839,2.309701606372578,-1.621639791689006,0.9697237136900873
0.6000000000000003,0.8475484777686274,0.7740479830081988,0.5437345552787899,1.986608312592363,1.9650115888060893,1.2068374395541188,0.3834985805651075,-0.5432279534897267,-0.05550313119362081,1.9604651637192243,-1.1879648704305832,0.8687188817783121
0.6100000000000003,0.8671585298381241,0.7935180353729165,0.5557159149085787,1.9353043330791475,1.9287231530417261,1.1892479387260328,0.39909673001737206,-0.5554424641254756,-0.051187029482105025,1.6095838356050582,-0.7903983793294658,0.7429892237334651
0.6200000000000003,0.886251646781322,0.8126163846308949,0.567518572545556,1.8832709969206674,1.890722666128861,1.17114590408408,0.41111926794295217,-0.563711169609631,-0.046727784928656195,1.2681980132783324,-0.43239634528489,0.6029566624293111
0.6300000000000003,0.9048226488595682,0.8313279419311541,0.5791377555512641,1.8309233395202744,1.8514152994167568,1.1526009399690664,0.41979987276423125,-0.5683477214949162,-0.04228222143535758,0.944745639741696,-0.113782949529047,0.4575135964111612
0.6400000000000003,0.9228702997328784,0.8496416625805896,0.59056935058531,1.778635977040949,1.8112032566669463,1.1336734809676474,0.42542584061432825,-0.5696806563634484,-0.03797366920418558,0.6448765226362161,0.1679107444022429,0.3135350092258
0.6500000000000004,0.9403968791194417,0.8675504301507455,0.6018098203903007,1.7267386645753884,1.7704689673020932,1.1144171027885148,0.4283091375015324,-0.5680338782140731,-0.03389170485590602,0.37179188750490083,0.4163428272187385,0.17589384738598096
0.6600000000000004,0.95740773054524,0.8850507950938645,0.6128561422901143,1.6755155570631857,1.7295627720887807,1.094880467935262,0.42876502396391136,-0.5637142806645743,-0.03009564454870774,0.12675889584930097,0.6355724967122864,0.047748873855825325
0.6700000000000004,0.9739108158133203,0.9021426137935521,0.6237057643918794,1.6252071739774625,1.688795256538985,1.075108803648597,0.4270977314965217,-0.5570050674005075,-0.026619713885421635,-0.09036461318707933,0.8295599524771912,-0.06907891199215697
0.6800000000000004,0.9899162978926817,0.9188286319114304,0.6343565748987923,1.5760140651953378,1.6484336939861104,1.0551449288350734,0.42359181566862153,-0.5481631879484914,-0.023478579982014643,-0.2806763535582133,1.0018882286070798,-0.17374638043470575
0.6900000000000004,1.0054361648080168,0.935114048770403,0.6448068803132,1.5281013363121,1.6087017303815199,1.0350299041596536,0.4185076699063918,-0.5374194780785124,-0.020672505700132723,-0.4458692713473873,1.1556408681213872,-0.2660872401705251
0.7000000000000004,1.0204838999296424,0.9510060904899763,0.6550553890529194,1.4816034201082684,1.569781382141784,1.014803385443485,0.4120798891226543,-0.5249804156099318,-0.01819174760980635,-0.5879588869480785,1.2933751773105768,-0.34637582735233524
0.7100000000000004,1.0350741990532102,0.9665136107298055,0.6651011977713692,1.4366286903264325,1.5318165064100469,0.9945037525544078,0.4045174814605659,-0.5110308182212633,-0.01602005196149392,-0.7090843338327947,1.4171340394854468,-0.4151435849350132
0.7200000000000004,1.0492227313682634,0.9816467301978974,0.674943778488181,1.393263653715034,1.4949170442648172,0.974168101599384,0.3960052004055415,-0.49573712226797845,-0.014137260024924433,-0.8113718326882763,1.5284723953610948,-0.4730421607959014
0.7300000000000004,1.0629459393871026,0.9964165199879358,0.68458296544217,1.3515765752139888,1.459163516498052,0.9538321710000398,0.38670547779554204,-0.47925095091157427,-0.012521136961835705,-0.8968492839568263,1.6284974741717706,-0.5207521440413012
0.7400000000000004,1.0762608719647093,1.0108347295087496,0.694018941119953,1.311620492243313,1.424611429607926,0.9335302360619946,0.3767606108887394,-0.4617127108843884,-0.011148587332075502,-0.9673982130152978,1.7179146493161,-0.5589284019940014
0.7500000000000004,1.0891850443856463,1.024913557035721,0.7032522212158762,1.2734356307023211,1.3912953849347371,0.9132949943978367,0.3662949965130599,-0.4432550506440205,-0.00999642051566235,-1.0247304212328334,1.7970724731200194,-0.5881717284858142
0.7600000000000005,1.1017363197663517,1.0386654593435596,0.7122836384808098,1.2370512650156158,1.3592327813874936,0.8931574573827791,0.3554173107312816,-0.4240060780102171,-0.00904180462043994,-1.0703783154412196,1.8660064043680455,-0.609019398396603
0.7700000000000005,1.1139328065081806,1.052102996115851,0.7211143255649742,1.2024870784284467,1.328427066599162,0.8731468600633697,0.3442225980711578,-0.4040922482808925,-0.008262517521685562,-1.1056929730707663,1.9244847808117564,-0.621949961231649
0.7800000000000005,1.1257927671356993,1.0652387045911482,0.7297456970720737,1.1697540885136992,1.2988705335190218,0.8532905983029467,0.3327942500413848,-0.3836408155808699,-0.007637077541575638,-1.1318490323591495,1.9720618059503083,-0.6273990765157959
0.7900000000000005,1.1373345345370165,1.0780850000180517,0.7381794311052794,1.138855210548877,1.2705466874247202,0.8336141960839166,0.3212058461793637,-0.3627817194361495,-0.007144815853732167,-1.1498554395193488,2.0081408634284164,-0.6257833137959194
